 # Pos, Density, Err_Density
           1  0.20437959183673468        5.7606790677762270E-004
           2  0.20536530612244899        5.7709758868380032E-004
           3  0.20716122448979593        5.7896010147273093E-004
           4  0.20945306122448978        5.8131181061419257E-004
           5  0.21124285714285715        5.8312898501204939E-004
           6  0.21361224489795919        5.8550876834720085E-004
           7  0.21533673469387754        5.8722249266208960E-004
           8  0.21841224489795918        5.9024093347044939E-004
           9  0.22000612244897960        5.9178634543279420E-004
          10  0.22259387755102042        5.9426827451715392E-004
          11  0.22366122448979592        5.9528227080755394E-004
          12  0.22617551020408164        5.9764870711679578E-004
          13  0.22812857142857143        5.9946562313401279E-004
          14  0.23061020408163266        6.0174768909972392E-004
          15  0.23256122448979591        6.0352113290629283E-004
          16  0.23438163265306122        6.0515958921955539E-004
          17  0.23680816326530613        6.0731939799083944E-004
          18  0.23791632653061223        6.0829663162180285E-004
          19  0.24102448979591837        6.1100734007170582E-004
          20  0.24340204081632652        6.1305106379647319E-004
          21  0.24589387755102041        6.1516561323104438E-004
          22  0.24562040816326530        6.1493491153324562E-004
          23  0.24983877551020409        6.1845654123095749E-004
          24  0.25163877551020408        6.1993531948647206E-004
          25  0.25339795918367347        6.2136688275949391E-004
          26  0.25594489795918368        6.2341571802882985E-004
          27  0.25791428571428571        6.2498082736107160E-004
          28  0.25965102040816329        6.2634731189711401E-004
          29  0.26222448979591839        6.2834867278136212E-004
          30  0.26514285714285712        6.3058463713426625E-004
          31  0.26721020408163265        6.3214715239264701E-004
          32  0.26909183673469389        6.3355398613040056E-004
          33  0.27197346938775513        6.3568041857932800E-004
          34  0.27389591836734695        6.3708030485552227E-004
          35  0.27653061224489794        6.3897467730534446E-004
          36  0.27909591836734693        6.4079253657854315E-004
          37  0.28103265306122449        6.4214770532826392E-004
          38  0.28342040816326530        6.4379816903175453E-004
          39  0.28553673469387753        6.4524241265610945E-004
          40  0.28837551020408164        6.4715243657151084E-004
          41  0.29112653061224492        6.4897387417293278E-004
          42  0.29258775510204083        6.4992960476954417E-004
          43  0.29491632653061223        6.5143591298541862E-004
          44  0.29751428571428573        6.5309238573615219E-004
          45  0.30007755102040817        6.5470201103484205E-004
          46  0.30287346938775511        6.5642994081744255E-004
          47  0.30623673469387758        6.5847039357910613E-004
          48  0.30720612244897960        6.5905083384324293E-004
          49  0.30994897959183676        6.6067468551877985E-004
          50  0.31219999999999998        6.6198705209607924E-004
          51  0.31491632653061225        6.6354649163519945E-004
          52  0.31689183673469390        6.6466410197965435E-004
          53  0.31785714285714284        6.6520516950363572E-004
          54  0.32141836734693879        6.6717283578861231E-004
          55  0.32526734693877551        6.6924950344821716E-004
          56  0.32667959183673467        6.6999853200283761E-004
          57  0.33053469387755102        6.7200812376774603E-004
          58  0.33121020408163265        6.7235499126066915E-004
          59  0.33425102040816329        6.7389709709872740E-004
          60  0.33715918367346936        6.7534249593259534E-004
          61  0.33923673469387755        6.7635755024370047E-004
          62  0.34254285714285715        6.7794293926894990E-004
          63  0.34417346938775512        6.7871140264196732E-004
          64  0.34731632653061223        6.8016759017635719E-004
          65  0.34887959183673467        6.8087971642419635E-004
          66  0.35284693877551021        6.8265086031312383E-004
          67  0.35469387755102039        6.8345779138867231E-004
          68  0.35749999999999998        6.8466251182757246E-004
          69  0.35951836734693876        6.8551323077353668E-004
          70  0.36243469387755101        6.8671918413575376E-004
          71  0.36435102040816325        6.8749672256835639E-004
          72  0.36785102040816325        6.8888648274431196E-004
          73  0.37056122448979589        6.8993581984037780E-004
          74  0.37350816326530611        6.9105039132170737E-004
          75  0.37645714285714288        6.9213830523194282E-004
          76  0.37931428571428571        6.9316629092313524E-004
          77  0.38124693877551019        6.9384717256552148E-004
          78  0.38431836734693875        6.9490530828531340E-004
          79  0.38661632653061223        6.9567782625290996E-004
          80  0.38992653061224491        6.9676194414598140E-004
          81  0.39124897959183674        6.9718561865368168E-004
          82  0.39409591836734692        6.9807947254365329E-004
          83  0.39692040816326529        6.9894176240822131E-004
          84  0.40146938775510205        7.0027941719300491E-004
          85  0.40327959183673467        7.0079424714104377E-004
          86  0.40561020408163267        7.0144248811694588E-004
          87  0.40846122448979594        7.0221319597993305E-004
          88  0.41098775510204083        7.0287575506458014E-004
          89  0.41576326530612245        7.0407584895221492E-004
          90  0.41730000000000000        7.0444754732966138E-004
          91  0.42061224489795918        7.0522479313822617E-004
          92  0.42248571428571430        7.0564999057925180E-004
          93  0.42705918367346940        7.0664432255500580E-004
          94  0.42822448979591837        7.0688779835209278E-004
          95  0.43163265306122450        7.0757693152449406E-004
          96  0.43554285714285712        7.0832552866644568E-004
          97  0.43723469387755104        7.0863553331471823E-004
          98  0.43913673469387754        7.0897405458453396E-004
          99  0.44248979591836735        7.0954509201676499E-004
         100  0.44618163265306121        7.1013592164919455E-004
         101  0.44919591836734696        7.1058892690480330E-004
         102  0.45278367346938775        7.1109375154592834E-004
         103  0.45530408163265307        7.1142609707157130E-004
         104  0.45954897959183671        7.1194432674440752E-004
         105  0.46012857142857144        7.1201104838893134E-004
         106  0.46488775510204083        7.1252229504427064E-004
         107  0.46617755102040814        7.1264961471763214E-004
         108  0.46894489795918365        7.1290664104881149E-004
         109  0.47276530612244899        7.1322531495785163E-004
         110  0.47597142857142855        7.1346042001556027E-004
         111  0.48059591836734694        7.1374762820434882E-004
         112  0.48202857142857142        7.1382417625228203E-004
         113  0.48606530612244897        7.1400826655384207E-004
         114  0.49006530612244897        7.1414470302044665E-004
         115  0.49027551020408161        7.1415060764835057E-004
         116  0.49436938775510203        7.1424042171507605E-004
         117  0.49783877551020406        7.1427904155269603E-004
         118  0.49953877551020409        7.1428541038846393E-004
         119  0.50344081632653059        7.1426880091833816E-004
         120  0.50658367346938771        7.1422379052102521E-004
         121  0.51038163265306125        7.1413172869255856E-004
         122  0.51445306122448975        7.1398723623937216E-004
         123  0.51576326530612249        7.1393065384801533E-004
         124  0.51884693877551025        7.1377809519570471E-004
         125  0.52225102040816329        7.1357806673702777E-004
         126  0.52631020408163265        7.1329613331233771E-004
         127  0.52987755102040812        7.1300933380418212E-004
         128  0.53166122448979591        7.1285222853130969E-004
         129  0.53542040816326530        7.1249116669862419E-004
         130  0.53920000000000001        7.1208713064670193E-004
         131  0.54311632653061226        7.1162501932951023E-004
         132  0.54598775510204078        7.1125804953039735E-004
         133  0.54930408163265310        7.1080452770134778E-004
         134  0.55130408163265310        7.1051560928412261E-004
         135  0.55635714285714288        7.0973388581311713E-004
         136  0.55946326530612245        7.0921646918377281E-004
         137  0.56284489795918369        7.0862113708200047E-004
         138  0.56480612244897954        7.0826054022733623E-004
         139  0.56951632653061224        7.0734842660732326E-004
         140  0.57189183673469390        7.0686367333123773E-004
         141  0.57571632653061222        7.0604826957714232E-004
         142  0.57934081632653056        7.0523557341463491E-004
         143  0.58220408163265303        7.0456599604401440E-004
         144  0.58592653061224487        7.0365899576449085E-004
         145  0.58919795918367346        7.0282770565165316E-004
         146  0.59274081632653064        7.0189123668622309E-004
         147  0.59603469387755104        7.0098667717382050E-004
         148  0.59993469387755105        6.9987324939854202E-004
         149  0.60331224489795920        6.9887165627691096E-004
         150  0.60658775510204077        6.9786708643640699E-004
         151  0.60986530612244894        6.9682899039750731E-004
         152  0.61440816326530612        6.9533543832625523E-004
         153  0.61757755102040812        6.9425561295129190E-004
         154  0.62124897959183678        6.9296565416543951E-004
         155  0.62513673469387754        6.9155370418776921E-004
         156  0.62832448979591837        6.9036048749262558E-004
         157  0.63134693877551018        6.8919944933811721E-004
         158  0.63510408163265308        6.8771566135270663E-004
         159  0.63873877551020408        6.8623722941900487E-004
         160  0.64230408163265307        6.8474566759280542E-004
         161  0.64682244897959185        6.8279612470301815E-004
         162  0.64936938775510200        6.8166780167478542E-004
         163  0.65414693877551022        6.7949369095919143E-004
         164  0.65722040816326532        6.7805505654638021E-004
         165  0.66048367346938774        6.7649304346510122E-004
         166  0.66496530612244897        6.7428941853692973E-004
         167  0.66897959183673472        6.7225769102952483E-004
         168  0.67144081632653063        6.7098472639524334E-004
         169  0.67637551020408160        6.6836944354281677E-004
         170  0.67944285714285713        6.6670107890499019E-004
         171  0.68289591836734698        6.6478335130520612E-004
         172  0.68649591836734691        6.6273901723372082E-004
         173  0.69129183673469385        6.5994346263511931E-004
         174  0.69417755102040812        6.5822128696333348E-004
         175  0.69942857142857140        6.5500933923542731E-004
         176  0.70152040816326533        6.5370143140101552E-004
         177  0.70492653061224486        6.5153682849095984E-004
         178  0.71039183673469386        6.4797215081785270E-004
         179  0.71430816326530611        6.4534757469047587E-004
         180  0.71848163265306120        6.4248525146774933E-004
         181  0.72092448979591839        6.4077817774827058E-004
         182  0.72570000000000001        6.3737265234647749E-004
         183  0.72956734693877556        6.3454761841786093E-004
         184  0.73300816326530616        6.3198294321423860E-004
         185  0.73762040816326535        6.2846840328467603E-004
         186  0.74150612244897962        6.2543828358258631E-004
         187  0.74423877551020412        6.2326890147468576E-004
         188  0.74850612244897963        6.1981680490578658E-004
         189  0.75211632653061222        6.1683417858516567E-004
         190  0.75734693877551018        6.1241001521901873E-004
         191  0.76125306122448977        6.0902538065947163E-004
         192  0.76552857142857145        6.0524000595328349E-004
         193  0.76943673469387752        6.0170479913411240E-004
         194  0.77362244897959187        5.9783752385357081E-004
         195  0.77747959183673465        5.9419826986147116E-004
         196  0.78145510204081636        5.9037004226715093E-004
         197  0.78506938775510204        5.8682028706937722E-004
         198  0.78931428571428575        5.8256513007460555E-004
         199  0.79282653061224495        5.7897274083658595E-004
         200  0.79689387755102037        5.7472979538164548E-004
