 # Pos, Density, Err_Density
           1  0.50172743589743585        2.5318333074166055E-004
           2  0.50269743589743587        2.5318115731705809E-004
           3  0.50303076923076928        2.5318019043800210E-004
           4  0.50400948717948713        2.5317670124737373E-004
           5  0.50467487179487180        2.5317377511012711E-004
           6  0.50553487179487178        2.5316932875875294E-004
           7  0.50583641025641024        2.5316759236608614E-004
           8  0.50646512820512823        2.5316367570554299E-004
           9  0.50709333333333328        2.5315936230692066E-004
          10  0.50781666666666669        2.5315390055196139E-004
          11  0.50851461538461540        2.5314812797783045E-004
          12  0.50911846153846152        2.5314273548334885E-004
          13  0.50962846153846153        2.5313789326626435E-004
          14  0.51069410256410253        2.5312692477031973E-004
          15  0.51103230769230767        2.5312320309560734E-004
          16  0.51131641025641028        2.5311998718501207E-004
          17  0.51222897435897441        2.5310910396361382E-004
          18  0.51322051282051284        2.5309632201116666E-004
          19  0.51364666666666670        2.5309052221102321E-004
          20  0.51445102564102563        2.5307907341277208E-004
          21  0.51495743589743592        2.5307152891328210E-004
          22  0.51549102564102567        2.5306329811424405E-004
          23  0.51629897435897432        2.5305028558485324E-004
          24  0.51709461538461543        2.5303682417977764E-004
          25  0.51755794871794869        2.5302868917951183E-004
          26  0.51837666666666671        2.5301378199120471E-004
          27  0.51893102564102567        2.5300330202982445E-004
          28  0.51934076923076922        2.5299535550898656E-004
          29  0.52073897435897432        2.5296695585490383E-004
          30  0.52138487179487181        2.5295316646606634E-004
          31  0.52153076923076924        2.5294999301895643E-004
          32  0.52289692307692304        2.5291922847362700E-004
          33  0.52365923076923082        2.5290123784278397E-004
          34  0.52397358974358976        2.5289364694538075E-004
          35  0.52505358974358973        2.5286680270043051E-004
          36  0.52577179487179482        2.5284829473628596E-004
          37  0.52634384615384611        2.5283317788299864E-004
          38  0.52738358974358979        2.5280484974492181E-004
          39  0.52802205128205126        2.5278690967505237E-004
          40  0.52807153846153843        2.5278550181994139E-004
          41  0.52975615384615382        2.5273608983421460E-004
          42  0.52989692307692304        2.5273183010117737E-004
          43  0.53045974358974357        2.5271459731790431E-004
          44  0.53154384615384620        2.5268049439692100E-004
          45  0.53207384615384612        2.5266338628184752E-004
          46  0.53327051282051285        2.5262370565859823E-004
          47  0.53384205128205131        2.5260423873507936E-004
          48  0.53440538461538456        2.5258472531799309E-004
          49  0.53524051282051277        2.5255520150903354E-004
          50  0.53648512820512817        2.5250988070023110E-004
          51  0.53678769230769230        2.5249862436521673E-004
          52  0.53791769230769226        2.5245575830235120E-004
          53  0.53886307692307689        2.5241889342309795E-004
          54  0.53914435897435897        2.5240774865208066E-004
          55  0.53986051282051284        2.5237900859400686E-004
          56  0.54113487179487174        2.5232657020494216E-004
          57  0.54162256410256415        2.5230606269204274E-004
          58  0.54248692307692303        2.5226911829024441E-004
          59  0.54322051282051287        2.5223716316173547E-004
          60  0.54376692307692309        2.5221300340843298E-004
          61  0.54440512820512821        2.5218439762891360E-004
          62  0.54563333333333330        2.5212817196758298E-004
          63  0.54649076923076922        2.5208800273344279E-004
          64  0.54729769230769232        2.5204951095958482E-004
          65  0.54746256410256411        2.5204156403708293E-004
          66  0.54830871794871794        2.5200033972817517E-004
          67  0.54983307692307692        2.5192421756551025E-004
          68  0.55018179487179486        2.5190646792087445E-004
          69  0.55128846153846156        2.5184931072176907E-004
          70  0.55205923076923080        2.5180875755718122E-004
          71  0.55307205128205128        2.5175453927245479E-004
          72  0.55345384615384619        2.5173382683331180E-004
          73  0.55462435897435902        2.5166939007185312E-004
          74  0.55545076923076919        2.5162304539178216E-004
          75  0.55674820512820511        2.5154886420077370E-004
          76  0.55697282051282049        2.5153584529324680E-004
          77  0.55756923076923082        2.5150102394074018E-004
          78  0.55869666666666662        2.5143419454239947E-004
          79  0.55966897435897434        2.5137550494610600E-004
          80  0.56032307692307692        2.5133547220262411E-004
          81  0.56106128205128203        2.5128976013209244E-004
          82  0.56225641025641027        2.5121455707758776E-004
          83  0.56324307692307696        2.5115135554099120E-004
          84  0.56370641025641022        2.5112132796117719E-004
          85  0.56465846153846155        2.5105892829122467E-004
          86  0.56546564102564101        2.5100528641133513E-004
          87  0.56667179487179486        2.5092386820102925E-004
          88  0.56772000000000000        2.5085188274542224E-004
          89  0.56852000000000003        2.5079617303750155E-004
          90  0.56898948717948716        2.5076316881784500E-004
          91  0.57031641025641022        2.5066864554353178E-004
          92  0.57106410256410256        2.5061457450750778E-004
          93  0.57212923076923072        2.5053653915845729E-004
          94  0.57274179487179488        2.5049112337966709E-004
          95  0.57353282051282051        2.5043189580762753E-004
          96  0.57476564102564098        2.5033828339639258E-004
          97  0.57553717948717953        2.5027888778429556E-004
          98  0.57651230769230766        2.5020292624269933E-004
          99  0.57772538461538459        2.5010703584890567E-004
         100  0.57838512820512822        2.5005423600217656E-004
         101  0.57970794871794873        2.4994699074474381E-004
         102  0.58028256410256407        2.4989983116375088E-004
         103  0.58132564102564099        2.4981333549824994E-004
         104  0.58239282051282049        2.4972365399805242E-004
         105  0.58344230769230765        2.4963428701416871E-004
         106  0.58411461538461540        2.4957642654474738E-004
         107  0.58515794871794868        2.4948568828494578E-004
         108  0.58587435897435902        2.4942271526453658E-004
         109  0.58683179487179482        2.4933770704343452E-004
         110  0.58802743589743589        2.4923018426969962E-004
         111  0.58923923076923079        2.4911966010164263E-004
         112  0.59000820512820518        2.4904871473298870E-004
         113  0.59121512820512823        2.4893609538652225E-004
         114  0.59152769230769231        2.4890667674535677E-004
         115  0.59251153846153848        2.4881339689562191E-004
         116  0.59396615384615381        2.4867358995553710E-004
         117  0.59512282051282051        2.4856080565346359E-004
         118  0.59580615384615387        2.4849350240961372E-004
         119  0.59696307692307693        2.4837841358866706E-004
         120  0.59789717948717946        2.4828444308713950E-004
         121  0.59905666666666668        2.4816649538777076E-004
         122  0.59992333333333336        2.4807739045562105E-004
         123  0.60085743589743590        2.4798044671893324E-004
         124  0.60198641025641031        2.4786202330257027E-004
         125  0.60238615384615379        2.4781976261739391E-004
         126  0.60416666666666663        2.4762943031440100E-004
         127  0.60509205128205124        2.4752915433433174E-004
         128  0.60638282051282055        2.4738773444489667E-004
         129  0.60725897435897436        2.4729071048498660E-004
         130  0.60846025641025636        2.4715632589642709E-004
         131  0.60983948717948722        2.4700009709130617E-004
         132  0.61064282051282048        2.4690814562638145E-004
         133  0.61160589743589744        2.4679698064558321E-004
         134  0.61323794871794868        2.4660628174779872E-004
         135  0.61367641025641029        2.4655455200765710E-004
         136  0.61516923076923080        2.4637684721186232E-004
         137  0.61596923076923082        2.4628060789332539E-004
         138  0.61726948717948715        2.4612268536326688E-004
         139  0.61798333333333333        2.4603519294623519E-004
         140  0.61954923076923074        2.4584129830946503E-004
         141  0.62057230769230765        2.4571315286677501E-004
         142  0.62154564102564103        2.4559016159805857E-004
         143  0.62265025641025640        2.4544930783888824E-004
         144  0.62390333333333337        2.4528788109593922E-004
         145  0.62503717948717952        2.4514030715338115E-004
         146  0.62591641025641021        2.4502488498849556E-004
         147  0.62726666666666664        2.4484594610068048E-004
         148  0.62846743589743592        2.4468510266281512E-004
         149  0.62969333333333333        2.4451922439700955E-004
         150  0.63120076923076918        2.4431293412933698E-004
         151  0.63204153846153843        2.4419676393869509E-004
         152  0.63367076923076926        2.4396937883375196E-004
         153  0.63445333333333331        2.4385909190873469E-004
         154  0.63553589743589745        2.4370538145539474E-004
         155  0.63690871794871795        2.4350854402408099E-004
         156  0.63847435897435900        2.4328144085244383E-004
         157  0.63975282051282056        2.4309391936130120E-004
         158  0.64063230769230772        2.4296383292799059E-004
         159  0.64185538461538461        2.4278145171390905E-004
         160  0.64372717948717950        2.4249900759863556E-004
         161  0.64433102564102562        2.4240702951504968E-004
         162  0.64586769230769225        2.4217106495776186E-004
         163  0.64684128205128200        2.4202015061557076E-004
         164  0.64792615384615382        2.4185069191881854E-004
         165  0.64949000000000001        2.4160400950782340E-004
         166  0.65074384615384617        2.4140416840810050E-004
         167  0.65225820512820509        2.4116035678549457E-004
         168  0.65344923076923078        2.4096671414795956E-004
         169  0.65503717948717943        2.4070594518062376E-004
         170  0.65624435897435895        2.4050571734165387E-004
         171  0.65758205128205127        2.4028183084514018E-004
         172  0.65914641025641030        2.4001731780601675E-004
         173  0.66032538461538459        2.3981604651510634E-004
         174  0.66146128205128207        2.3962056244883597E-004
         175  0.66207333333333329        2.3951459171984418E-004
         176  0.66409487179487181        2.3916139441198118E-004
         177  0.66595871794871797        2.3883139849457897E-004
         178  0.66691615384615388        2.3866025502697403E-004
         179  0.66845205128205132        2.3838339428639929E-004
         180  0.66966615384615380        2.3816251520976029E-004
         181  0.67156410256410259        2.3781363027906152E-004
         182  0.67263820512820516        2.3761423710373002E-004
         183  0.67422948717948716        2.3731623703035886E-004
         184  0.67586769230769228        2.3700619639328423E-004
         185  0.67711076923076918        2.3676872596588647E-004
         186  0.67822358974358976        2.3655451589319479E-004
         187  0.67998179487179489        2.3621293822156180E-004
         188  0.68143435897435900        2.3592783195973592E-004
         189  0.68271384615384612        2.3567450958389061E-004
         190  0.68458692307692304        2.3529995468359329E-004
         191  0.68608538461538460        2.3499712471374907E-004
         192  0.68773410256410261        2.3466064244222483E-004
         193  0.68906538461538458        2.3438642230094099E-004
         194  0.69055948717948723        2.3407596939383659E-004
         195  0.69200153846153845        2.3377361897861695E-004
         196  0.69397538461538466        2.3335542944643840E-004
         197  0.69488358974358977        2.3316132109228699E-004
         198  0.69645102564102568        2.3282379962746838E-004
         199  0.69791282051282055        2.3250614299944196E-004
         200  0.69927358974358977        2.3220792872276960E-004
