 # Pos, Density, Err_Density
           1  0.40060410256410256        2.4813171418179922E-004
           2  0.40192256410256411        2.4826620151009764E-004
           3  0.40293205128205128        2.4836791017157861E-004
           4  0.40378871794871796        2.4845336414586357E-004
           5  0.40498615384615383        2.4857149259939400E-004
           6  0.40569128205128208        2.4864033633140078E-004
           7  0.40717641025641027        2.4878359517352638E-004
           8  0.40807487179487179        2.4886911955446179E-004
           9  0.40888076923076921        2.4894510041682788E-004
          10  0.41027461538461540        2.4907488079899007E-004
          11  0.41079333333333334        2.4912265057866381E-004
          12  0.41184923076923075        2.4921900670614152E-004
          13  0.41265384615384615        2.4929163716638883E-004
          14  0.41409307692307690        2.4941983994012555E-004
          15  0.41481666666666667        2.4948346624330622E-004
          16  0.41592307692307690        2.4957968308066548E-004
          17  0.41684102564102565        2.4965852832422181E-004
          18  0.41805076923076923        2.4976107740959743E-004
          19  0.41852205128205128        2.4980060965247369E-004
          20  0.41982948717948720        2.4990905467538096E-004
          21  0.42085102564102567        2.4999253314896534E-004
          22  0.42187410256410257        2.5007503702085800E-004
          23  0.42346743589743591        2.5020133771183460E-004
          24  0.42374820512820510        2.5022331758099280E-004
          25  0.42501564102564104        2.5032150911465247E-004
          26  0.42595358974358977        2.5039309051258984E-004
          27  0.42680871794871794        2.5045754859686541E-004
          28  0.42775948717948720        2.5052831781566324E-004
          29  0.42872333333333335        2.5059909590608240E-004
          30  0.43013897435897436        2.5070129181362734E-004
          31  0.43084666666666666        2.5075159660963118E-004
          32  0.43192230769230772        2.5082705647315950E-004
          33  0.43299461538461537        2.5090108298738399E-004
          34  0.43303923076923079        2.5090413706414550E-004
          35  0.43496846153846153        2.5103421924537443E-004
          36  0.43593615384615386        2.5109801111037038E-004
          37  0.43656666666666666        2.5113905241264979E-004
          38  0.43772128205128208        2.5121313929924230E-004
          39  0.43888743589743590        2.5128656361521009E-004
          40  0.43973230769230770        2.5133887904371280E-004
          41  0.44089307692307694        2.5140955025634387E-004
          42  0.44187666666666664        2.5146834338271432E-004
          43  0.44279153846153846        2.5152213132395367E-004
          44  0.44350794871794874        2.5156364752154702E-004
          45  0.44445153846153845        2.5161752029246849E-004
          46  0.44558999999999999        2.5168129617862716E-004
          47  0.44664974358974358        2.5173946144059332E-004
          48  0.44762666666666667        2.5179205602199502E-004
          49  0.44863051282051281        2.5184507640505058E-004
          50  0.44968256410256408        2.5189953005560112E-004
          51  0.45077717948717949        2.5195497865067524E-004
          52  0.45178743589743592        2.5200506133636006E-004
          53  0.45271333333333336        2.5205004140689877E-004
          54  0.45362999999999998        2.5209370617353322E-004
          55  0.45456461538461540        2.5213733835151769E-004
          56  0.45602410256410258        2.5220368266527153E-004
          57  0.45694282051282054        2.5224432564307657E-004
          58  0.45803282051282052        2.5229142481940982E-004
          59  0.45852153846153848        2.5231214755170716E-004
          60  0.45959025641025641        2.5235661205311410E-004
          61  0.46071743589743591        2.5240224315184701E-004
          62  0.46176897435897435        2.5244364117329153E-004
          63  0.46217358974358974        2.5245926946793930E-004
          64  0.46382948717948719        2.5252148626647806E-004
          65  0.46458282051282052        2.5254886472957701E-004
          66  0.46568025641025640        2.5258771271652894E-004
          67  0.46650102564102564        2.5261596408783195E-004
          68  0.46791256410256410        2.5266294384859435E-004
          69  0.46848179487179487        2.5268131481733977E-004
          70  0.46902769230769231        2.5269862264406677E-004
          71  0.47097153846153844        2.5275778839642875E-004
          72  0.47176974358974361        2.5278096965809137E-004
          73  0.47272358974358974        2.5280782071820522E-004
          74  0.47330025641025641        2.5282360511966255E-004
          75  0.47440564102564103        2.5285291599130426E-004
          76  0.47575256410256411        2.5288695247359947E-004
          77  0.47630358974358972        2.5290034529736841E-004
          78  0.47722846153846155        2.5292213103686559E-004
          79  0.47854128205128205        2.5295156292389327E-004
          80  0.47975641025641025        2.5297724488440847E-004
          81  0.48041871794871793        2.5299061165981479E-004
          82  0.48147102564102562        2.5301093374023131E-004
          83  0.48238589743589744        2.5302768845693915E-004
          84  0.48298897435897437        2.5303826862021887E-004
          85  0.48455461538461536        2.5306401343517545E-004
          86  0.48542076923076921        2.5307718799737937E-004
          87  0.48631461538461540        2.5308998614961549E-004
          88  0.48732999999999999        2.5310354174952558E-004
          89  0.48843717948717946        2.5311713168868022E-004
          90  0.48946974358974360        2.5312868608265611E-004
          91  0.49038205128205126        2.5313799574107793E-004
          92  0.49180589743589742        2.5315084014768590E-004
          93  0.49220974358974356        2.5315410929427969E-004
          94  0.49309461538461541        2.5316069471694770E-004
          95  0.49407179487179487        2.5316704548373505E-004
          96  0.49582102564102565        2.5317599846408004E-004
          97  0.49661076923076924        2.5317902509367320E-004
          98  0.49762487179487180        2.5318198520493131E-004
          99  0.49886564102564102        2.5318419018861740E-004
         100  0.49976615384615386        2.5318481408058337E-004
         101  0.50037384615384617        2.5318477100020042E-004
         102  0.50169282051282049        2.5318339069288590E-004
         103  0.50225794871794871        2.5318226011678392E-004
         104  0.50333384615384613        2.5317921364723334E-004
         105  0.50467923076923082        2.5317375446235781E-004
         106  0.50558897435897432        2.5316902399213849E-004
         107  0.50627743589743590        2.5316488687878314E-004
         108  0.50747487179487183        2.5315654743790364E-004
         109  0.50872666666666666        2.5314627639679249E-004
         110  0.50955769230769232        2.5313858093620932E-004
         111  0.51031384615384612        2.5313097075073393E-004
         112  0.51137692307692306        2.5311929163999687E-004
         113  0.51272410256410261        2.5310284583085284E-004
         114  0.51339692307692308        2.5309394346463478E-004
         115  0.51448153846153843        2.5307862619523689E-004
         116  0.51519025641025640        2.5306797308749480E-004
         117  0.51583999999999997        2.5305775888783441E-004
         118  0.51752179487179484        2.5302933178731691E-004
         119  0.51832102564102567        2.5301481664299306E-004
         120  0.51932769230769227        2.5299561175380457E-004
         121  0.52052820512820508        2.5297136393844161E-004
         122  0.52155358974358978        2.5294949468992513E-004
         123  0.52226358974358977        2.5293372628059502E-004
         124  0.52324461538461542        2.5291109609323664E-004
         125  0.52408846153846156        2.5289084805692609E-004
         126  0.52570435897435897        2.5285005485146538E-004
         127  0.52660025641025643        2.5282629405151420E-004
         128  0.52729794871794877        2.5280722461874761E-004
         129  0.52822076923076922        2.5278124128309332E-004
         130  0.52963076923076924        2.5273986703408790E-004
         131  0.53033358974358979        2.5271848802178545E-004
         132  0.53107102564102560        2.5269551524924360E-004
         133  0.53211410256410252        2.5266207513071601E-004
         134  0.53383564102564107        2.5260445891895787E-004
         135  0.53392461538461533        2.5260139902114049E-004
         136  0.53517794871794877        2.5255743795756961E-004
         137  0.53594205128205130        2.5252985045673735E-004
         138  0.53727692307692310        2.5248022568211473E-004
         139  0.53830666666666671        2.5244070097742068E-004
         140  0.53926487179487181        2.5240294902729435E-004
         141  0.53928846153846155        2.5240200778892840E-004
         142  0.54146948717948717        2.5231252579914905E-004
         143  0.54219256410256411        2.5228178564416407E-004
         144  0.54359205128205124        2.5222076871367816E-004
         145  0.54421692307692304        2.5219287679483280E-004
         146  0.54544051282051287        2.5213710138742676E-004
         147  0.54640512820512821        2.5209204875441097E-004
         148  0.54677128205128200        2.5207469750426466E-004
         149  0.54800666666666664        2.5201513993773227E-004
         150  0.54872307692307687        2.5197988410511599E-004
         151  0.55026589743589749        2.5190216841065643E-004
         152  0.55108589743589742        2.5185986696063339E-004
         153  0.55190974358974354        2.5181667045305671E-004
         154  0.55344641025641028        2.5173423166603318E-004
         155  0.55379641025641024        2.5171511483580207E-004
         156  0.55512487179487180        2.5164140568225915E-004
         157  0.55627564102564098        2.5157608434048446E-004
         158  0.55721666666666669        2.5152165276396543E-004
         159  0.55778282051282047        2.5148846415587906E-004
         160  0.55884076923076920        2.5142555806906616E-004
         161  0.56024102564102563        2.5134051824205329E-004
         162  0.56078564102564099        2.5130689474206220E-004
         163  0.56189743589743590        2.5123730095695193E-004
         164  0.56302076923076927        2.5116568371963009E-004
         165  0.56378512820512816        2.5111620428871801E-004
         166  0.56524487179487182        2.5102002509988389E-004
         167  0.56644282051282047        2.5093944085167043E-004
         168  0.56711128205128203        2.5089382564958719E-004
         169  0.56787128205128201        2.5084139900451516E-004
         170  0.56901641025641025        2.5076126920266819E-004
         171  0.57028692307692308        2.5067076601481889E-004
         172  0.57071358974358977        2.5063999528671994E-004
         173  0.57213128205128205        2.5053638773006679E-004
         174  0.57286897435897433        2.5048164504936011E-004
         175  0.57441974358974357        2.5036470923795210E-004
         176  0.57458538461538466        2.5035207024783768E-004
         177  0.57621205128205133        2.5022642220411557E-004
         178  0.57763051282051281        2.5011459090668113E-004
         179  0.57807564102564102        2.5007906148750351E-004
         180  0.57900717948717950        2.5000403360309119E-004
         181  0.57984000000000002        2.4993618385499923E-004
         182  0.58138256410256406        2.4980858223647558E-004
         183  0.58250794871794875        2.4971390727542199E-004
         184  0.58306384615384610        2.4966664824661714E-004
         185  0.58407384615384617        2.4957994885401792E-004
         186  0.58521051282051284        2.4948108633149915E-004
         187  0.58598153846153844        2.4941324736257571E-004
         188  0.58685487179487184        2.4933564611166639E-004
         189  0.58782769230769227        2.4924825255355623E-004
         190  0.58917717948717951        2.4912535751834647E-004
         191  0.58998666666666666        2.4905071042796159E-004
         192  0.59149051282051279        2.4891018154729545E-004
         193  0.59156128205128200        2.4890350907124818E-004
         194  0.59298025641025642        2.4876859390260197E-004
         195  0.59409794871794874        2.4866081111914136E-004
         196  0.59492974358974360        2.4857973171805851E-004
         197  0.59623256410256409        2.4845125075475372E-004
         198  0.59707487179487184        2.4836721637682291E-004
         199  0.59807179487179485        2.4826677289923672E-004
         200  0.59910948717948720        2.4816108785605836E-004
