 # Pos, Density, Err_Density
           1  0.20301362318840580        2.1656012452168311E-004
           2  0.20601014492753622        2.1774201269197279E-004
           3  0.20875594202898551        2.1880896220456014E-004
           4  0.21181623188405796        2.1998031255421107E-004
           5  0.21497101449275363        2.2116848939587901E-004
           6  0.21789333333333333        2.2225186693089287E-004
           7  0.22101768115942028        2.2339207475876151E-004
           8  0.22364869565217391        2.2433796746850512E-004
           9  0.22727739130434782        2.2562144691087326E-004
          10  0.22985855072463768        2.2651972904664242E-004
          11  0.23258666666666666        2.2745606943616481E-004
          12  0.23584144927536232        2.2855580619326825E-004
          13  0.23858144927536232        2.2946714667254153E-004
          14  0.24165768115942030        2.3047477544148635E-004
          15  0.24429768115942030        2.3132656140500580E-004
          16  0.24793333333333334        2.3248025975450764E-004
          17  0.25045884057971013        2.3326865133822182E-004
          18  0.25410927536231886        2.3438958745307362E-004
          19  0.25687797101449278        2.3522525684042421E-004
          20  0.25980492753623191        2.3609524433033084E-004
          21  0.26266927536231882        2.3693338337468979E-004
          22  0.26557014492753622        2.3776900436134766E-004
          23  0.26849478260869564        2.3859816095638613E-004
          24  0.27156666666666668        2.3945482295899842E-004
          25  0.27450840579710145        2.4026165745222729E-004
          26  0.27732318840579712        2.4102139996288612E-004
          27  0.28065942028985508        2.4190650373341935E-004
          28  0.28353478260869563        2.4265608134645223E-004
          29  0.28649623188405798        2.4341539672420904E-004
          30  0.28965420289855071        2.4421103112318268E-004
          31  0.29234376811594204        2.4487730696531250E-004
          32  0.29546492753623188        2.4563753438593280E-004
          33  0.29877768115942027        2.4642932867073120E-004
          34  0.30118347826086955        2.4699468437837895E-004
          35  0.30474956521739133        2.4781787826465399E-004
          36  0.30753101449275361        2.4844775476092038E-004
          37  0.31071942028985505        2.4915675884208557E-004
          38  0.31387797101449277        2.4984551187629900E-004
          39  0.31637855072463766        2.5038125327218376E-004
          40  0.31930724637681157        2.5099808232310319E-004
          41  0.32258985507246379        2.5167591334013565E-004
          42  0.32508550724637680        2.5218173813868849E-004
          43  0.32860840579710143        2.5288189454825675E-004
          44  0.33156405797101451        2.5345687306179576E-004
          45  0.33447449275362318        2.5401204265119927E-004
          46  0.33737768115942030        2.5455501464827489E-004
          47  0.34017275362318838        2.5506762463111277E-004
          48  0.34377768115942031        2.5571416736302642E-004
          49  0.34608463768115943        2.5611934561968388E-004
          50  0.34949536231884060        2.5670620100371041E-004
          51  0.35263014492753625        2.5723283639643836E-004
          52  0.35546347826086955        2.5769839346653485E-004
          53  0.35826840579710145        2.5814957758470348E-004
          54  0.36077304347826089        2.5854433902120394E-004
          55  0.36412666666666665        2.5906097837867926E-004
          56  0.36674434782608695        2.5945479691393962E-004
          57  0.37057594202898553        2.6001639481103154E-004
          58  0.37362086956521740        2.6045017626429229E-004
          59  0.37588028985507249        2.6076492693030608E-004
          60  0.37884579710144928        2.6116886597855920E-004
          61  0.38153507246376811        2.6152621225006360E-004
          62  0.38518666666666668        2.6199784183693987E-004
          63  0.38823391304347826        2.6237949162434814E-004
          64  0.39063478260869566        2.6267257914239857E-004
          65  0.39387710144927535        2.6305778855009677E-004
          66  0.39741565217391306        2.6346435095929915E-004
          67  0.39985797101449277        2.6373656928818792E-004
          68  0.40296637681159420        2.6407315409979058E-004
          69  0.40615855072463769        2.6440733967640444E-004
          70  0.40957362318840579        2.6475204170592765E-004
          71  0.41151855072463767        2.6494245102987794E-004
          72  0.41476666666666667        2.6525092243355507E-004
          73  0.41820898550724639        2.6556487782239760E-004
          74  0.42052086956521739        2.6576826989447888E-004
          75  0.42420347826086957        2.6607990915460811E-004
          76  0.42648608695652174        2.6626547969645152E-004
          77  0.42984376811594205        2.6652791850273412E-004
          78  0.43252753623188406        2.6672868842135073E-004
          79  0.43600173913043477        2.6697675228849673E-004
          80  0.43874724637681162        2.6716335998762516E-004
          81  0.44149971014492756        2.6734210623153036E-004
          82  0.44431043478260868        2.6751604168391709E-004
          83  0.44751739130434781        2.6770391159891939E-004
          84  0.45077652173913041        2.6788330207895588E-004
          85  0.45341362318840578        2.6801995896670177E-004
          86  0.45623275362318838        2.6815765865807940E-004
          87  0.45978405797101451        2.6831880130244879E-004
          88  0.46260782608695650        2.6843714365875043E-004
          89  0.46569188405797102        2.6855650266710172E-004
          90  0.46864695652173916        2.6866119316788458E-004
          91  0.47149594202898548        2.6875316981167264E-004
          92  0.47439130434782606        2.6883764547625346E-004
          93  0.47746898550724637        2.6891750439462657E-004
          94  0.48053971014492752        2.6898698698051726E-004
          95  0.48353652173913042        2.6904498513114590E-004
          96  0.48599072463768117        2.6908526756123111E-004
          97  0.48954463768115941        2.6913209159125666E-004
          98  0.49258463768115940        2.6916134507325986E-004
          99  0.49549043478260868        2.6918000217598595E-004
         100  0.49876666666666669        2.6919013208914381E-004
         101  0.50092057971014492        2.6919049476779920E-004
         102  0.50418521739130440        2.6918152054248006E-004
         103  0.50684869565217394        2.6916569723944270E-004
         104  0.50987913043478261        2.6913840132393528E-004
         105  0.51304956521739131        2.6909925373667226E-004
         106  0.51640318840579713        2.6904605252585671E-004
         107  0.51910521739130433        2.6899436482887544E-004
         108  0.52236231884057971        2.6892158584277846E-004
         109  0.52547304347826085        2.6884138098916385E-004
         110  0.52835304347826084        2.6875779998146161E-004
         111  0.53090028985507243        2.6867639718068279E-004
         112  0.53444347826086958        2.6855148039942473E-004
         113  0.53719739130434785        2.6844498752552647E-004
         114  0.54021072463768116        2.6831902795107981E-004
         115  0.54342840579710150        2.6817362619837036E-004
         116  0.54605043478260873        2.6804680396859350E-004
         117  0.54909536231884060        2.6789011666790273E-004
         118  0.55201710144927540        2.6773024557057417E-004
         119  0.55505942028985511        2.6755384680165019E-004
         120  0.55764173913043480        2.6739615614616564E-004
         121  0.56100608695652177        2.6717971878806150E-004
         122  0.56443159420289857        2.6694653954747002E-004
         123  0.56692666666666669        2.6676854283452306E-004
         124  0.56959420289855067        2.6657062414830345E-004
         125  0.57293681159420284        2.6631147804315165E-004
         126  0.57618927536231879        2.6604739379452552E-004
         127  0.57877710144927541        2.6582884778583591E-004
         128  0.58175971014492756        2.6556767187849048E-004
         129  0.58448724637681160        2.6532009937118857E-004
         130  0.58817304347826083        2.6497225143414806E-004
         131  0.59096637681159425        2.6469841646333003E-004
         132  0.59411217391304350        2.6437944773185986E-004
         133  0.59663304347826085        2.6411572721948031E-004
         134  0.60017826086956527        2.6373258087908808E-004
         135  0.60332666666666668        2.6338025629763407E-004
         136  0.60573449275362323        2.6310311916919680E-004
         137  0.60908521739130439        2.6270632490286305E-004
         138  0.61175072463768121        2.6238138827096888E-004
         139  0.61481623188405798        2.6199747365523117E-004
         140  0.61770985507246379        2.6162501654241184E-004
         141  0.62095536231884063        2.6119557907699651E-004
         142  0.62386898550724634        2.6079948121081011E-004
         143  0.62659420289855072        2.6041989938908368E-004
         144  0.62966840579710148        2.5998110552195305E-004
         145  0.63307971014492759        2.5948097065060533E-004
         146  0.63575275362318839        2.5907930064802016E-004
         147  0.63881942028985506        2.5860784959022001E-004
         148  0.64197304347826090        2.5811111803596116E-004
         149  0.64448666666666665        2.5770649699961623E-004
         150  0.64775391304347829        2.5716896897370249E-004
         151  0.65033826086956525        2.5673445781879660E-004
         152  0.65371681159420292        2.5615390631376418E-004
         153  0.65618173913043476        2.5572135217860842E-004
         154  0.66006347826086953        2.5502468361751222E-004
         155  0.66305391304347827        2.5447497610024499E-004
         156  0.66554579710144923        2.5400820999058667E-004
         157  0.66852492753623194        2.5343972716216224E-004
         158  0.67196695652173910        2.5276864937269364E-004
         159  0.67438405797101453        2.5228819518102524E-004
         160  0.67748898550724634        2.5165980028464378E-004
         161  0.68056492753623188        2.5102474440293922E-004
         162  0.68365739130434777        2.5037361220134265E-004
         163  0.68638434782608693        2.4978882378628265E-004
         164  0.68961913043478262        2.4908213264667058E-004
         165  0.69212289855072462        2.4852538543097347E-004
         166  0.69544463768115938        2.4777350199394231E-004
         167  0.69806782608695650        2.4716897715213181E-004
         168  0.70152898550724641        2.4635668026900599E-004
         169  0.70442956521739131        2.4566299106350774E-004
         170  0.70782666666666672        2.4483539375553268E-004
         171  0.71016985507246377        2.4425493454367146E-004
         172  0.71282608695652172        2.4358735403670175E-004
         173  0.71589565217391304        2.4280311542804685E-004
         174  0.71951768115942027        2.4185993530715261E-004
         175  0.72245652173913044        2.4108035579944057E-004
         176  0.72531797101449280        2.4030886643307891E-004
         177  0.72850289855072459        2.3943558351529403E-004
         178  0.73134057971014488        2.3864444243909173E-004
         179  0.73432492753623191        2.3779898241828315E-004
         180  0.73723014492753625        2.3696257781826718E-004
         181  0.74026463768115947        2.3607472648917642E-004
         182  0.74336405797101446        2.3515270110519007E-004
         183  0.74607942028985508        2.3433218024525638E-004
         184  0.74929999999999997        2.3334338073605892E-004
         185  0.75221188405797101        2.3243460388685085E-004
         186  0.75560376811594199        2.3135812864126041E-004
         187  0.75794927536231882        2.3060234380450640E-004
         188  0.76075681159420294        2.2968528260550910E-004
         189  0.76410405797101444        2.2857405901176520E-004
         190  0.76691652173913039        2.2762514979274447E-004
         191  0.77047304347826084        2.2640500631506300E-004
         192  0.77299623188405797        2.2552551022330021E-004
         193  0.77622521739130435        2.2438297313087552E-004
         194  0.77891739130434778        2.2341557354146779E-004
         195  0.78223478260869561        2.2220471530356173E-004
         196  0.78551623188405795        2.2098624872341936E-004
         197  0.78766144927536230        2.2017837998932616E-004
         198  0.79122782608695652        2.1881522435486116E-004
         199  0.79402840579710143        2.1772692415668072E-004
         200  0.79699623188405799        2.1655620701364453E-004
